  
 Model:
  LAYER     H(km)       TA          TC          TF          TL          TN        Density     QA(inv)     QB(inv)
    1     2.00031  1047.93750  1047.93750   339.27872   354.16257   354.16257     5.74549     0.00000     0.00000
    2     2.00094  1047.93750  1047.93750   339.27872   353.82907   353.82907     5.73647     0.00000     0.00000
    3     2.00157  1047.93750  1047.93750   339.27872   353.49579   353.49579     5.72747     0.00000     0.00000
    4     2.00220  1047.93750  1047.93750   339.27872   353.16272   353.16272     5.71848     0.00000     0.00000
    5     2.00283  1047.93750  1047.93750   339.27872   352.82986   352.82986     5.70950     0.00000     0.00000
    6     2.00346  1047.93750  1047.93750   339.27872   352.49722   352.49722     5.70053     0.00000     0.00000
    7     2.00409  1047.93750  1047.93750   339.27872   352.16476   352.16476     5.69157     0.00000     0.00000
    8     2.00472  1047.93750  1047.93750   339.27872   351.83255   351.83255     5.68263     0.00000     0.00000
    9     2.00535  1047.93750  1047.93750   339.27872   351.50052   351.50052     5.67369     0.00000     0.00000
   10     2.00598  1047.93750  1047.93750   339.27872   351.16870   351.16870     5.66477     0.00000     0.00000
   11     2.00661  1047.93750  1047.93750   339.27872   350.83710   350.83710     5.65586     0.00000     0.00000
   12     2.00725  1047.93750  1047.93750   339.27872   350.50571   350.50571     5.64696     0.00000     0.00000
   13     2.00788  1047.93750  1047.93750   339.27872   350.17453   350.17453     5.63807     0.00000     0.00000
   14     2.00851  1047.93750  1047.93750   339.27872   349.84354   349.84354     5.62919     0.00000     0.00000
   15     2.00915  1047.93750  1047.93750   339.27872   349.51279   349.51279     5.62032     0.00000     0.00000
   16     2.00978  1047.93750  1047.93750   339.27872   349.18222   349.18222     5.61146     0.00000     0.00000
   17     2.01041  1047.93750  1047.93750   339.27872   348.85187   348.85187     5.60262     0.00000     0.00000
   18     2.01105  1047.93750  1047.93750   339.27872   348.52173   348.52173     5.59378     0.00000     0.00000
   19     2.01168  1047.93750  1047.93750   339.27872   348.19177   348.19177     5.58496     0.00000     0.00000
   20     2.01232  1047.93750  1047.93750   339.27872   347.86206   347.86206     5.57615     0.00000     0.00000
   21     2.01295  1047.93750  1047.93750   339.27872   347.53253   347.53253     5.56735     0.00000     0.00000
   22     2.01359  1047.93750  1047.93750   339.27872   347.20322   347.20322     5.55856     0.00000     0.00000
   23     2.01423  1047.93750  1047.93750   339.27872   346.87411   346.87411     5.54978     0.00000     0.00000
   24     2.01486  1047.93750  1047.93750   339.27872   346.54523   346.54523     5.54101     0.00000     0.00000
   25     2.01550  1047.93750  1047.93750   339.27872   346.21655   346.21655     5.53226     0.00000     0.00000
   26     2.01614  1047.93750  1047.93750   339.27872   345.88806   345.88806     5.52351     0.00000     0.00000
   27     2.01678  1047.93750  1047.93750   339.27872   345.55978   345.55978     5.51478     0.00000     0.00000
   28     2.01742  1047.93750  1047.93750   339.27872   345.23172   345.23172     5.50605     0.00000     0.00000
   29     2.01806  1047.93750  1047.93750   339.27872   344.90387   344.90387     5.49734     0.00000     0.00000
   30     2.01869  1047.93750  1047.93750   339.27872   344.57623   344.57623     5.48864     0.00000     0.00000
   31     2.01933  1047.93750  1047.93750   339.27872   344.24878   344.24878     5.47995     0.00000     0.00000
   32     2.01997  1047.93750  1047.93750   339.27872   343.92157   343.92157     5.47127     0.00000     0.00000
   33     2.02062  1047.93750  1047.93750   339.27872   343.59454   343.59454     5.46260     0.00000     0.00000
   34     2.02126  1047.93750  1047.93750   339.27872   343.26770   343.26770     5.45395     0.00000     0.00000
   35     2.02190  1047.93750  1047.93750   339.27872   342.94110   342.94110     5.44530     0.00000     0.00000
   36     2.02254  1047.93750  1047.93750   339.27872   342.61469   342.61469     5.43667     0.00000     0.00000
   37     2.02318  1047.93750  1047.93750   339.27872   342.28851   342.28851     5.42804     0.00000     0.00000
   38     2.02382  1047.93750  1047.93750   339.27872   341.96252   341.96252     5.41943     0.00000     0.00000
   39     2.02447  1047.93750  1047.93750   339.27872   341.63672   341.63672     5.41083     0.00000     0.00000
   40     2.02511  1047.93750  1047.93750   339.27872   341.31116   341.31116     5.40223     0.00000     0.00000
   41     2.02576  1047.93750  1047.93750   339.27872   340.98578   340.98578     5.39365     0.00000     0.00000
   42     2.02640  1047.93750  1047.93750   339.27872   340.66061   340.66061     5.38508     0.00000     0.00000
   43     2.02704  1047.93750  1047.93750   339.27872   340.33566   340.33566     5.37653     0.00000     0.00000
   44     2.02769  1047.93750  1047.93750   339.27872   340.01093   340.01093     5.36798     0.00000     0.00000
   45     2.02833  1047.93750  1047.93750   339.27872   339.68637   339.68637     5.35944     0.00000     0.00000
   46     2.02898  1047.93750  1047.93750   339.27872   339.36206   339.36206     5.35091     0.00000     0.00000
   47     2.02963  1047.93750  1047.93750   339.27872   339.03793   339.03793     5.34240     0.00000     0.00000
   48     2.03027  1047.93750  1047.93750   339.27872   338.71399   338.71399     5.33390     0.00000     0.00000
   49     2.03092  1047.93750  1047.93750   339.27872   338.39029   338.39029     5.32540     0.00000     0.00000
   50     2.03157  1047.93750  1047.93750   339.27872   338.06677   338.06677     5.31692     0.00000     0.00000
   51     2.03222  1047.93750  1047.93750   339.27872   337.74347   337.74347     5.30845     0.00000     0.00000
   52     2.03287  1047.93750  1047.93750   339.27872   337.42038   337.42038     5.29999     0.00000     0.00000
   53     2.03351  1047.93750  1047.93750   339.27872   337.09747   337.09747     5.29154     0.00000     0.00000
   54     2.03416  1047.93750  1047.93750   339.27872   336.77481   336.77481     5.28310     0.00000     0.00000
   55     2.03481  1047.93750  1047.93750   339.27872   336.45233   336.45233     5.27467     0.00000     0.00000
   56     2.03546  1047.93750  1047.93750   339.27872   336.13007   336.13007     5.26625     0.00000     0.00000
   57     2.03611  1047.93750  1047.93750   339.27872   335.80798   335.80798     5.25784     0.00000     0.00000
   58     2.03676  1047.93750  1047.93750   339.27872   335.48611   335.48611     5.24945     0.00000     0.00000
   59     2.03742  1047.93750  1047.93750   339.27872   335.16446   335.16446     5.24106     0.00000     0.00000
   60     2.03807  1047.93750  1047.93750   339.27872   334.84302   334.84302     5.23269     0.00000     0.00000
   61     2.03872  1047.93750  1047.93750   339.27872   334.52179   334.52179     5.22432     0.00000     0.00000
   62     2.03937  1047.93750  1047.93750   339.27872   334.20074   334.20074     5.21597     0.00000     0.00000
   63     2.04003  1047.93750  1047.93750   339.27872   333.87991   333.87991     5.20763     0.00000     0.00000
   64     2.04068  1047.93750  1047.93750   339.27872   333.55927   333.55927     5.19929     0.00000     0.00000
   65     2.04133  1047.93750  1047.93750   339.27872   333.23886   333.23886     5.19097     0.00000     0.00000
   66     2.04199  1047.93750  1047.93750   339.27872   332.91864   332.91864     5.18266     0.00000     0.00000
   67     2.04264  1047.93750  1047.93750   339.27872   332.59863   332.59863     5.17436     0.00000     0.00000
   68     2.04330  1047.93750  1047.93750   339.27872   332.27881   332.27881     5.16607     0.00000     0.00000
   69     2.04395  1047.93750  1047.93750   339.27872   331.95923   331.95923     5.15779     0.00000     0.00000
   70     2.04461  1047.93750  1047.93750   339.27872   331.63983   331.63983     5.14952     0.00000     0.00000
   71     2.04526  1047.93750  1047.93750   339.27872   331.32065   331.32065     5.14127     0.00000     0.00000
   72     2.04592  1047.93750  1047.93750   339.27872   331.00165   331.00165     5.13302     0.00000     0.00000
   73     2.04658  1047.93750  1047.93750   339.27872   330.68286   330.68286     5.12478     0.00000     0.00000
   74     2.04724  1047.93750  1047.93750   339.27872   330.36429   330.36429     5.11656     0.00000     0.00000
   75     2.04789  1047.93750  1047.93750   339.27872   330.04593   330.04593     5.10834     0.00000     0.00000
   76     2.04855  1047.93750  1047.93750   339.27872   329.72775   329.72775     5.10014     0.00000     0.00000
   77     2.04921  1047.93750  1047.93750   339.27872   329.40979   329.40979     5.09194     0.00000     0.00000
   78     2.04987  1047.93750  1047.93750   339.27872   329.09204   329.09204     5.08376     0.00000     0.00000
   79     2.05053  1047.93750  1047.93750   339.27872   328.77448   328.77448     5.07558     0.00000     0.00000
   80     2.05119  1047.93750  1047.93750   339.27872   328.45712   328.45712     5.06742     0.00000     0.00000
   81     2.05185  1047.93750  1047.93750   339.27872   328.13998   328.13998     5.05927     0.00000     0.00000
   82     2.05251  1047.93750  1047.93750   339.27872   327.82303   327.82303     5.05113     0.00000     0.00000
   83     2.05317  1047.93750  1047.93750   339.27872   327.50629   327.50629     5.04300     0.00000     0.00000
   84     2.05384  1047.93750  1047.93750   339.27872   327.18976   327.18976     5.03488     0.00000     0.00000
   85     2.05450  1047.93750  1047.93750   339.27872   326.87344   326.87344     5.02677     0.00000     0.00000
   86     2.05516  1047.93750  1047.93750   339.27872   326.55731   326.55731     5.01867     0.00000     0.00000
   87     2.05582  1047.93750  1047.93750   339.27872   326.24139   326.24139     5.01058     0.00000     0.00000
   88     2.05649  1047.93750  1047.93750   339.27872   325.92566   325.92566     5.00250     0.00000     0.00000
   89     2.05715  1047.93750  1047.93750   339.27872   325.61017   325.61017     4.99443     0.00000     0.00000
   90     2.05782  1047.93750  1047.93750   339.27872   325.29486   325.29486     4.98637     0.00000     0.00000
   91     2.05848  1047.93750  1047.93750   339.27872   324.97974   324.97974     4.97832     0.00000     0.00000
   92     2.05915  1047.93750  1047.93750   339.27872   324.66483   324.66483     4.97029     0.00000     0.00000
   93     2.05981  1047.93750  1047.93750   339.27872   324.35013   324.35013     4.96226     0.00000     0.00000
   94     2.06048  1047.93750  1047.93750   339.27872   324.03564   324.03564     4.95424     0.00000     0.00000
   95     2.06115  1047.93750  1047.93750   339.27872   323.72134   323.72134     4.94624     0.00000     0.00000
   96     2.06181  1047.93750  1047.93750   339.27872   323.40726   323.40726     4.93824     0.00000     0.00000
   97     2.06248  1047.93750  1047.93750   339.27872   323.09338   323.09338     4.93025     0.00000     0.00000
   98     2.06315  1047.93750  1047.93750   339.27872   322.77969   322.77969     4.92228     0.00000     0.00000
   99     2.06382  1047.93750  1047.93750   339.27872   322.46622   322.46622     4.91431     0.00000     0.00000
  100     0.00000  1047.93750  1047.93750   339.27872   322.23123   322.23123     4.90835     0.00000     0.00000


                   LOVE WAVE        MODE #  0
        T = 0.1000E+02 C =    0.7948E+01 U   = 0.7885E+01
        AL= 0.1758E-04 GAMMA= 0.0000E+00 ZREF= 0.0000E+00
    M       UT         TT       DC/DH      DC/DBv     DC/DBh     DC/DR
    1   0.100E+01  0.763E-07 -0.123E-02  0.130E-06  0.252E-01 -0.429E-03
    2   0.100E+01 -0.110E+00 -0.120E-02  0.897E-06  0.252E-01 -0.416E-03
    3   0.999E+00 -0.218E+00 -0.117E-02  0.238E-05  0.251E-01 -0.403E-03
    4   0.997E+00 -0.322E+00 -0.113E-02  0.451E-05  0.250E-01 -0.389E-03
    5   0.995E+00 -0.423E+00 -0.110E-02  0.723E-05  0.249E-01 -0.374E-03
    6   0.992E+00 -0.521E+00 -0.107E-02  0.105E-04  0.247E-01 -0.358E-03
    7   0.989E+00 -0.616E+00 -0.104E-02  0.142E-04  0.245E-01 -0.342E-03
    8   0.985E+00 -0.708E+00 -0.101E-02  0.184E-04  0.243E-01 -0.325E-03
    9   0.981E+00 -0.796E+00 -0.975E-03  0.229E-04  0.241E-01 -0.308E-03
   10   0.976E+00 -0.881E+00 -0.944E-03  0.277E-04  0.238E-01 -0.291E-03
   11   0.971E+00 -0.963E+00 -0.914E-03  0.328E-04  0.235E-01 -0.274E-03
   12   0.965E+00 -0.104E+01 -0.884E-03  0.381E-04  0.232E-01 -0.256E-03
   13   0.959E+00 -0.112E+01 -0.854E-03  0.435E-04  0.229E-01 -0.239E-03
   14   0.953E+00 -0.119E+01 -0.825E-03  0.491E-04  0.225E-01 -0.221E-03
   15   0.946E+00 -0.126E+01 -0.797E-03  0.547E-04  0.222E-01 -0.203E-03
   16   0.938E+00 -0.132E+01 -0.769E-03  0.603E-04  0.218E-01 -0.186E-03
   17   0.930E+00 -0.139E+01 -0.741E-03  0.660E-04  0.214E-01 -0.169E-03
   18   0.922E+00 -0.145E+01 -0.714E-03  0.715E-04  0.210E-01 -0.152E-03
   19   0.914E+00 -0.150E+01 -0.688E-03  0.771E-04  0.206E-01 -0.135E-03
   20   0.905E+00 -0.156E+01 -0.662E-03  0.824E-04  0.202E-01 -0.119E-03
   21   0.896E+00 -0.161E+01 -0.637E-03  0.877E-04  0.198E-01 -0.103E-03
   22   0.886E+00 -0.165E+01 -0.612E-03  0.928E-04  0.193E-01 -0.876E-04
   23   0.877E+00 -0.170E+01 -0.588E-03  0.977E-04  0.189E-01 -0.726E-04
   24   0.867E+00 -0.174E+01 -0.565E-03  0.102E-03  0.185E-01 -0.580E-04
   25   0.856E+00 -0.178E+01 -0.542E-03  0.107E-03  0.180E-01 -0.440E-04
   26   0.846E+00 -0.181E+01 -0.520E-03  0.111E-03  0.175E-01 -0.306E-04
   27   0.835E+00 -0.184E+01 -0.498E-03  0.115E-03  0.171E-01 -0.177E-04
   28   0.824E+00 -0.187E+01 -0.477E-03  0.119E-03  0.166E-01 -0.535E-05
   29   0.813E+00 -0.190E+01 -0.457E-03  0.122E-03  0.162E-01  0.639E-05
   30   0.802E+00 -0.193E+01 -0.437E-03  0.125E-03  0.157E-01  0.175E-04
   31   0.791E+00 -0.195E+01 -0.418E-03  0.128E-03  0.153E-01  0.281E-04
   32   0.779E+00 -0.197E+01 -0.399E-03  0.131E-03  0.148E-01  0.380E-04
   33   0.768E+00 -0.198E+01 -0.381E-03  0.133E-03  0.144E-01  0.474E-04
   34   0.756E+00 -0.200E+01 -0.364E-03  0.135E-03  0.139E-01  0.561E-04
   35   0.744E+00 -0.201E+01 -0.347E-03  0.137E-03  0.135E-01  0.642E-04
   36   0.732E+00 -0.202E+01 -0.331E-03  0.138E-03  0.130E-01  0.718E-04
   37   0.720E+00 -0.203E+01 -0.316E-03  0.139E-03  0.126E-01  0.787E-04
   38   0.708E+00 -0.203E+01 -0.300E-03  0.140E-03  0.122E-01  0.851E-04
   39   0.696E+00 -0.204E+01 -0.286E-03  0.141E-03  0.117E-01  0.909E-04
   40   0.684E+00 -0.204E+01 -0.272E-03  0.141E-03  0.113E-01  0.962E-04
   41   0.672E+00 -0.204E+01 -0.259E-03  0.141E-03  0.109E-01  0.101E-03
   42   0.660E+00 -0.204E+01 -0.246E-03  0.141E-03  0.105E-01  0.105E-03
   43   0.648E+00 -0.203E+01 -0.233E-03  0.140E-03  0.101E-01  0.109E-03
   44   0.636E+00 -0.203E+01 -0.221E-03  0.140E-03  0.974E-02  0.112E-03
   45   0.624E+00 -0.202E+01 -0.210E-03  0.139E-03  0.936E-02  0.115E-03
   46   0.612E+00 -0.201E+01 -0.199E-03  0.138E-03  0.900E-02  0.117E-03
   47   0.600E+00 -0.200E+01 -0.189E-03  0.136E-03  0.864E-02  0.119E-03
   48   0.588E+00 -0.199E+01 -0.179E-03  0.135E-03  0.829E-02  0.121E-03
   49   0.576E+00 -0.198E+01 -0.169E-03  0.133E-03  0.795E-02  0.122E-03
   50   0.564E+00 -0.197E+01 -0.160E-03  0.131E-03  0.762E-02  0.123E-03
   51   0.552E+00 -0.195E+01 -0.151E-03  0.129E-03  0.730E-02  0.123E-03
   52   0.540E+00 -0.193E+01 -0.143E-03  0.127E-03  0.698E-02  0.123E-03
   53   0.529E+00 -0.192E+01 -0.135E-03  0.125E-03  0.668E-02  0.123E-03
   54   0.517E+00 -0.190E+01 -0.127E-03  0.123E-03  0.639E-02  0.122E-03
   55   0.506E+00 -0.188E+01 -0.120E-03  0.120E-03  0.610E-02  0.122E-03
   56   0.495E+00 -0.186E+01 -0.113E-03  0.118E-03  0.583E-02  0.121E-03
   57   0.483E+00 -0.184E+01 -0.106E-03  0.115E-03  0.556E-02  0.119E-03
   58   0.472E+00 -0.181E+01 -0.997E-04  0.112E-03  0.531E-02  0.118E-03
   59   0.461E+00 -0.179E+01 -0.937E-04  0.110E-03  0.506E-02  0.116E-03
   60   0.451E+00 -0.177E+01 -0.880E-04  0.107E-03  0.482E-02  0.115E-03
   61   0.440E+00 -0.174E+01 -0.826E-04  0.104E-03  0.459E-02  0.113E-03
   62   0.429E+00 -0.172E+01 -0.775E-04  0.101E-03  0.437E-02  0.111E-03
   63   0.419E+00 -0.169E+01 -0.726E-04  0.984E-04  0.416E-02  0.108E-03
   64   0.409E+00 -0.167E+01 -0.680E-04  0.955E-04  0.395E-02  0.106E-03
   65   0.399E+00 -0.164E+01 -0.636E-04  0.926E-04  0.375E-02  0.104E-03
   66   0.389E+00 -0.162E+01 -0.594E-04  0.897E-04  0.356E-02  0.101E-03
   67   0.379E+00 -0.159E+01 -0.555E-04  0.868E-04  0.338E-02  0.986E-04
   68   0.369E+00 -0.156E+01 -0.518E-04  0.840E-04  0.321E-02  0.960E-04
   69   0.360E+00 -0.153E+01 -0.483E-04  0.811E-04  0.304E-02  0.934E-04
   70   0.350E+00 -0.151E+01 -0.449E-04  0.783E-04  0.289E-02  0.907E-04
   71   0.341E+00 -0.148E+01 -0.418E-04  0.755E-04  0.273E-02  0.880E-04
   72   0.332E+00 -0.145E+01 -0.388E-04  0.727E-04  0.259E-02  0.853E-04
   73   0.323E+00 -0.142E+01 -0.360E-04  0.700E-04  0.245E-02  0.825E-04
   74   0.314E+00 -0.139E+01 -0.333E-04  0.673E-04  0.232E-02  0.798E-04
   75   0.306E+00 -0.137E+01 -0.308E-04  0.646E-04  0.219E-02  0.771E-04
   76   0.297E+00 -0.134E+01 -0.285E-04  0.621E-04  0.207E-02  0.744E-04
   77   0.289E+00 -0.131E+01 -0.263E-04  0.595E-04  0.196E-02  0.717E-04
   78   0.281E+00 -0.128E+01 -0.242E-04  0.570E-04  0.185E-02  0.691E-04
   79   0.273E+00 -0.125E+01 -0.222E-04  0.546E-04  0.174E-02  0.665E-04
   80   0.266E+00 -0.123E+01 -0.203E-04  0.522E-04  0.164E-02  0.639E-04
   81   0.258E+00 -0.120E+01 -0.186E-04  0.499E-04  0.155E-02  0.614E-04
   82   0.251E+00 -0.117E+01 -0.170E-04  0.477E-04  0.146E-02  0.589E-04
   83   0.243E+00 -0.114E+01 -0.154E-04  0.455E-04  0.138E-02  0.565E-04
   84   0.236E+00 -0.111E+01 -0.140E-04  0.434E-04  0.130E-02  0.541E-04
   85   0.229E+00 -0.109E+01 -0.126E-04  0.413E-04  0.122E-02  0.518E-04
   86   0.223E+00 -0.106E+01 -0.113E-04  0.393E-04  0.115E-02  0.496E-04
   87   0.216E+00 -0.103E+01 -0.101E-04  0.374E-04  0.108E-02  0.474E-04
   88   0.210E+00 -0.101E+01 -0.898E-05  0.356E-04  0.102E-02  0.452E-04
   89   0.203E+00 -0.981E+00 -0.793E-05  0.338E-04  0.957E-03  0.432E-04
   90   0.197E+00 -0.955E+00 -0.693E-05  0.320E-04  0.899E-03  0.412E-04
   91   0.191E+00 -0.930E+00 -0.600E-05  0.304E-04  0.845E-03  0.392E-04
   92   0.185E+00 -0.904E+00 -0.513E-05  0.287E-04  0.794E-03  0.373E-04
   93   0.180E+00 -0.879E+00 -0.431E-05  0.272E-04  0.746E-03  0.355E-04
   94   0.174E+00 -0.855E+00 -0.355E-05  0.257E-04  0.700E-03  0.338E-04
   95   0.169E+00 -0.830E+00 -0.283E-05  0.243E-04  0.657E-03  0.321E-04
   96   0.164E+00 -0.806E+00 -0.216E-05  0.229E-04  0.617E-03  0.305E-04
   97   0.159E+00 -0.782E+00 -0.153E-05  0.216E-04  0.579E-03  0.289E-04
   98   0.154E+00 -0.759E+00 -0.939E-06  0.204E-04  0.543E-03  0.274E-04
   99   0.149E+00 -0.736E+00 -0.387E-06  0.192E-04  0.510E-03  0.260E-04
  100   0.144E+00 -0.713E+00  0.000E+00  0.000E+00  0.000E+00  0.000E+00


                   LOVE WAVE        MODE #  0
        T = 0.1200E+02 C =    0.7961E+01 U   = 0.7891E+01
        AL= 0.1549E-04 GAMMA= 0.0000E+00 ZREF= 0.0000E+00
    M       UT         TT       DC/DH      DC/DBv     DC/DBh     DC/DR
    1   0.100E+01  0.687E-07 -0.123E-02  0.101E-06  0.223E-01 -0.426E-03
    2   0.100E+01 -0.860E-01 -0.120E-02  0.697E-06  0.222E-01 -0.416E-03
    3   0.999E+00 -0.170E+00 -0.117E-02  0.185E-05  0.222E-01 -0.404E-03
    4   0.998E+00 -0.252E+00 -0.114E-02  0.353E-05  0.221E-01 -0.392E-03
    5   0.996E+00 -0.332E+00 -0.111E-02  0.568E-05  0.220E-01 -0.379E-03
    6   0.994E+00 -0.409E+00 -0.108E-02  0.827E-05  0.219E-01 -0.365E-03
    7   0.992E+00 -0.485E+00 -0.105E-02  0.112E-04  0.217E-01 -0.351E-03
    8   0.989E+00 -0.558E+00 -0.102E-02  0.146E-04  0.216E-01 -0.337E-03
    9   0.985E+00 -0.629E+00 -0.996E-03  0.182E-04  0.214E-01 -0.322E-03
